Ouput of newbins.pro
O2 branching ratios and cross sections.
  
 Wavelength Bins (A)  X     a+A     b     diss                 TotIon   TotAbs
    0.50      1.00   0.00   0.00   0.00   1.00   0.00   0.00   0.00004   0.00004
    1.00      2.00   0.00   0.00   0.00   1.00   0.00   0.00   0.00040   0.00040
    2.00      4.00   0.00   0.00   0.00   1.00   0.00   0.00   0.00400   0.00400
    4.00      8.00   0.00   0.00   0.00   1.00   0.00   0.00   0.02400   0.02400
    8.00     18.00   0.00   0.00   0.00   1.00   0.00   0.00   0.14000   0.14000
   18.00     23.00   0.00   0.00   0.00   1.00   0.00   0.00   0.03570   0.03570
   23.00     32.00   0.01   0.01   0.01   0.97   0.00   0.00   0.13691   0.13691
   32.00     44.00   0.02   0.02   0.02   0.95   0.00   0.00   0.26918   0.26918
   44.00     60.00   0.03   0.03   0.02   0.91   0.00   0.00   0.51550   0.51550
   60.00     70.00   0.05   0.04   0.03   0.88   0.00   0.00   0.81332   0.81332
   70.00     80.00   0.06   0.06   0.04   0.84   0.00   0.00   1.14249   1.14249
   80.00     90.00   0.08   0.07   0.05   0.80   0.00   0.00   1.58335   1.58335
   90.00    100.00   0.09   0.08   0.06   0.77   0.00   0.00   2.00842   2.00842
  100.00    110.00   0.11   0.10   0.07   0.73   0.00   0.00   2.43685   2.43685
  110.00    120.00   0.13   0.11   0.08   0.68   0.00   0.00   2.95809   2.95809
  120.00    130.00   0.15   0.13   0.09   0.62   0.00   0.00   3.64328   3.64328
  130.00    140.00   0.16   0.14   0.10   0.59   0.00   0.00   4.04450   4.04450
  140.00    150.00   0.19   0.17   0.12   0.53   0.00   0.00   5.05316   5.05316
  150.00    160.00   0.20   0.17   0.12   0.51   0.00   0.00   5.73250   5.73250
  160.00    170.00   0.20   0.18   0.13   0.48   0.00   0.00   6.52935   6.52935
  170.00    180.00   0.21   0.19   0.13   0.46   0.00   0.00   6.95131   6.95131
  180.00    190.00   0.23   0.20   0.13   0.44   0.00   0.00   7.64624   7.64624
  190.00    200.00   0.25   0.19   0.13   0.43   0.00   0.00   8.39623   8.39623
  200.00    210.00   0.25   0.20   0.13   0.42   0.00   0.00   9.04111   9.04111
  210.00    220.00   0.25   0.20   0.13   0.41   0.00   0.00   9.92071   9.92071
  220.00    230.00   0.26   0.21   0.14   0.40   0.00   0.00  10.73821  10.73821
  230.00    240.00   0.25   0.22   0.14   0.39   0.00   0.00  11.47570  11.47570
  240.00    250.00   0.27   0.21   0.14   0.38   0.00   0.00  12.22704  12.22704
  250.00    260.00   0.28   0.22   0.14   0.37   0.00   0.00  13.39503  13.39503
  260.00    270.00   0.28   0.21   0.13   0.37   0.00   0.00  14.01024  14.01024
  270.00    280.00   0.29   0.20   0.13   0.38   0.00   0.00  15.08846  15.08846
  280.00    290.00   0.29   0.21   0.13   0.37   0.00   0.00  15.81720  15.81720
  290.00    300.00   0.30   0.21   0.12   0.37   0.00   0.00  16.39007  16.39007
  300.00    310.00   0.31   0.21   0.13   0.35   0.00   0.00  16.81247  16.81247
  310.00    320.00   0.32   0.22   0.13   0.33   0.00   0.00  17.14463  17.14463
  320.00    330.00   0.33   0.22   0.13   0.32   0.00   0.00  17.20600  17.20600
  330.00    340.00   0.35   0.23   0.13   0.29   0.00   0.00  17.40800  17.40800
  340.00    350.00   0.36   0.23   0.13   0.28   0.00   0.00  17.71310  17.71310
  350.00    360.00   0.37   0.23   0.13   0.27   0.00   0.00  17.92000  17.92000
  360.00    370.00   0.38   0.24   0.13   0.25   0.00   0.00  18.30381  18.30381
  370.00    380.00   0.40   0.23   0.13   0.25   0.00   0.00  18.73354  18.73354
  380.00    390.00   0.41   0.22   0.12   0.25   0.00   0.00  19.16327  19.16327
  390.00    400.00   0.42   0.22   0.12   0.24   0.00   0.00  19.59300  19.59300
  400.00    410.00   0.42   0.22   0.12   0.24   0.00   0.00  19.68734  19.68734
  410.00    420.00   0.42   0.23   0.12   0.24   0.00   0.00  20.21700  20.21700
  420.00    430.00   0.41   0.24   0.12   0.23   0.00   0.00  20.52141  20.52141
  430.00    440.00   0.39   0.25   0.13   0.23   0.00   0.00  20.82582  20.82582
  440.00    450.00   0.40   0.25   0.13   0.23   0.00   0.00  21.20291  21.20291
  450.00    460.00   0.40   0.25   0.12   0.23   0.00   0.00  21.58000  21.58000
  460.00    470.00   0.39   0.25   0.13   0.23   0.00   0.00  21.90804  21.90804
  470.00    480.00   0.38   0.26   0.13   0.23   0.00   0.00  22.34753  22.34753
  480.00    490.00   0.37   0.27   0.13   0.23   0.00   0.00  22.82849  22.82849
  490.00    500.00   0.36   0.28   0.13   0.23   0.00   0.00  23.41873  23.41873
  500.00    510.00   0.35   0.29   0.13   0.23   0.00   0.00  23.80841  23.80841
  510.00    520.00   0.34   0.30   0.14   0.23   0.00   0.00  24.28000  24.28000
  520.00    530.00   0.34   0.31   0.14   0.21   0.00   0.00  24.66605  24.66605
  530.00    540.00   0.34   0.32   0.16   0.19   0.00   0.00  25.25100  25.25100
  540.00    550.00   0.34   0.31   0.18   0.17   0.00   0.00  25.28100  25.28100
  550.00    560.00   0.32   0.28   0.23   0.17   0.00   0.00  26.04140  26.04140
  560.00    570.00   0.31   0.26   0.26   0.17   0.00   0.00  25.97280  25.97280
  570.00    580.00   0.30   0.27   0.26   0.17   0.00   0.00  25.66200  25.66200
  580.00    590.00   0.28   0.29   0.26   0.17   0.00   0.00  22.73516  22.73516
  590.00    600.00   0.23   0.30   0.35   0.11   0.00   0.00  27.78559  27.78559
  600.00    610.00   0.25   0.37   0.30   0.07   0.00   0.00  26.39000  28.07500
  610.00    620.00   0.27   0.39   0.29   0.05   0.00   0.00  25.68800  26.42800
  620.00    630.00   0.30   0.35   0.31   0.03   0.00   0.00  30.70125  31.68113
  630.00    640.00   0.32   0.32   0.32   0.04   0.00   0.00  25.98600  26.16700
  640.00    650.00   0.33   0.31   0.32   0.04   0.00   0.00  24.99543  25.57554
  650.00    660.00   0.30   0.33   0.33   0.04   0.00   0.00  26.24485  27.11669
  660.00    670.00   0.27   0.38   0.35   0.00   0.00   0.00  25.39100  25.68600
  670.00    680.00   0.35   0.40   0.25   0.00   0.00   0.00  20.44100  20.85800
  680.00    690.00   0.53   0.47   0.00   0.00   0.00   0.00  20.41122  20.56370
  690.00    700.00   0.59   0.41   0.00   0.00   0.00   0.00  19.61648  21.27500
  700.00    710.00   0.66   0.34   0.00   0.00   0.00   0.00  23.85330  27.56503
  710.00    720.00   0.56   0.44   0.00   0.00   0.00   0.00  24.64139  29.61420
  720.00    730.00   0.59   0.41   0.00   0.00   0.00   0.00  25.68427  30.22772
  730.00    740.00   0.57   0.43   0.00   0.00   0.00   0.00  29.88164  33.39752
  740.00    750.00   0.64   0.36   0.00   0.00   0.00   0.00  15.10738  20.06582
  750.00    760.00   0.79   0.21   0.00   0.00   0.00   0.00  12.47806  19.92584
  760.00    770.00   0.91   0.09   0.00   0.00   0.00   0.00  10.97807  20.33442
  770.00    780.00   1.00   0.00   0.00   0.00   0.00   0.00   9.37360  19.59214
  780.00    790.00   1.00   0.00   0.00   0.00   0.00   0.00  10.25003  23.78824
  790.00    800.00   1.00   0.00   0.00   0.00   0.00   0.00   9.92727  27.43285
  800.00    810.00   1.00   0.00   0.00   0.00   0.00   0.00  11.89056  33.65188
  810.00    820.00   1.00   0.00   0.00   0.00   0.00   0.00  14.55569  32.87725
  820.00    830.00   1.00   0.00   0.00   0.00   0.00   0.00   7.78809  20.57218
  830.00    840.00   1.00   0.00   0.00   0.00   0.00   0.00   4.81160  12.58612
  840.00    850.00   1.00   0.00   0.00   0.00   0.00   0.00   4.32305  12.05939
  850.00    860.00   1.00   0.00   0.00   0.00   0.00   0.00   3.81993   8.99302
  860.00    870.00   1.00   0.00   0.00   0.00   0.00   0.00   4.56355   7.53888
  870.00    880.00   1.00   0.00   0.00   0.00   0.00   0.00   5.90823   9.20003
  880.00    890.00   1.00   0.00   0.00   0.00   0.00   0.00   6.62418   9.82225
  890.00    900.00   1.00   0.00   0.00   0.00   0.00   0.00   5.39738   7.54771
  900.00    910.00   1.00   0.00   0.00   0.00   0.00   0.00   6.53806   9.65596
  910.00    920.00   1.00   0.00   0.00   0.00   0.00   0.00   8.22776  11.89219
  920.00    930.00   1.00   0.00   0.00   0.00   0.00   0.00   5.32170   6.71444
  930.00    940.00   1.00   0.00   0.00   0.00   0.00   0.00  19.73679  24.46603
  940.00    950.00   1.00   0.00   0.00   0.00   0.00   0.00  10.54179  13.63943
  950.00    960.00   1.00   0.00   0.00   0.00   0.00   0.00  21.30165  27.31472
  960.00    970.00   1.00   0.00   0.00   0.00   0.00   0.00  18.66043  23.52472
  970.00    980.00   1.00   0.00   0.00   0.00   0.00   0.00  16.05609  20.40682
  980.00    990.00   1.00   0.00   0.00   0.00   0.00   0.00   5.03341   6.24338
  990.00   1000.00   1.00   0.00   0.00   0.00   0.00   0.00   9.67682  13.57317
 1000.00   1010.00   1.00   0.00   0.00   0.00   0.00   0.00   2.76065   3.24864
 1010.00   1020.00   1.00   0.00   0.00   0.00   0.00   0.00   1.02718   1.32311
 1020.00   1030.00   1.00   0.00   0.00   0.00   0.00   0.00   0.98258   1.62110
 1030.00   1040.00   0.00   0.00   0.00   0.00   0.00   0.00   0.00000   1.13530
 1040.00   1050.00   0.00   0.00   0.00   0.00   0.00   0.00   0.00000   1.36344
 1050.00   1100.00   0.00   0.00   0.00   0.00   0.00   0.00   0.00000   1.00000
 1100.00   1150.00   0.00   0.00   0.00   0.00   0.00   0.00   0.00000   0.40000
 1150.00   1210.00   0.00   0.00   0.00   0.00   0.00   0.00   0.00000   1.40000
 1210.00   1220.00   0.00   0.00   0.00   0.00   0.00   0.00   0.00000   0.01000
 1220.00   1250.00   0.00   0.00   0.00   0.00   0.00   0.00   0.00000  13.00000
 1250.00   1300.00   0.00   0.00   0.00   0.00   0.00   0.00   0.00000   0.40000
 1300.00   1350.00   0.00   0.00   0.00   0.00   0.00   0.00   0.00000   2.20000
 1350.00   1400.00   0.00   0.00   0.00   0.00   0.00   0.00   0.00000  12.00000
 1400.00   1450.00   0.00   0.00   0.00   0.00   0.00   0.00   0.00000  15.00000
 1450.00   1500.00   0.00   0.00   0.00   0.00   0.00   0.00   0.00000  13.00000
 1500.00   1550.00   0.00   0.00   0.00   0.00   0.00   0.00   0.00000  10.00000
 1550.00   1600.00   0.00   0.00   0.00   0.00   0.00   0.00   0.00000   6.00000
 1600.00   1650.00   0.00   0.00   0.00   0.00   0.00   0.00   0.00000   3.40000
 1650.00   1700.00   0.00   0.00   0.00   0.00   0.00   0.00   0.00000   1.50000
 1700.00   1750.00   0.00   0.00   0.00   0.00   0.00   0.00   0.00000   0.50000
